#
# Time Lag, Days, k     Autocorrelation Coefficient, r(k)
#
        0.0                   0.999999999999999E+00
        0.1                   0.999839876165635E+00
        0.2                   0.999325666645781E+00
        0.3                   0.998458263937888E+00
        0.4                   0.997239165350499E+00
        0.5                   0.995670469545491E+00
        0.6                   0.993754871689451E+00
        0.7                   0.991495657227246E+00
        0.8                   0.988896694294470E+00
        0.9                   0.985962424789267E+00
        1.0                   0.982697854127416E+00
        1.1                   0.979108539708324E+00
        1.2                   0.975200578122860E+00
        1.3                   0.970980591137323E+00
        1.4                   0.966455710491192E+00
        1.5                   0.961633561549367E+00
        1.6                   0.956522245852650E+00
        1.7                   0.951130322613111E+00
        1.8                   0.945466789203759E+00
        1.9                   0.939541060694550E+00
        2.0                   0.933362948489171E+00
        2.1                   0.926942638119442E+00
        2.2                   0.920290666256173E+00
        2.3                   0.913417896997467E+00
        2.4                   0.906335497497006E+00
        2.5                   0.899054895043820E+00
        2.6                   0.891587837058289E+00
        2.7                   0.883946190841341E+00
        2.8                   0.876142140919728E+00
        2.9                   0.868187802485654E+00
        3.0                   0.860096031002574E+00
        3.1                   0.851878721038068E+00
        3.2                   0.843549445776506E+00
        3.3                   0.835120280707154E+00
        3.4                   0.826603948779635E+00
        3.5                   0.818013478737338E+00
        3.6                   0.809361463435356E+00
        3.7                   0.800660618357494E+00
        3.8                   0.791923943653907E+00
        3.9                   0.783163594803388E+00
        4.0                   0.774392085826060E+00
        4.1                   0.765621685025935E+00
        4.2                   0.756864446378696E+00
        4.3                   0.748132510603292E+00
        4.4                   0.739437329010584E+00
        4.5                   0.730790228424746E+00
        4.6                   0.722202856602035E+00
        4.7                   0.713685833389391E+00
        4.8                   0.705249673375540E+00
        4.9                   0.696904711429610E+00
        5.0                   0.688661080991175E+00
        5.1                   0.680528101590407E+00
        5.2                   0.672515298560528E+00
        5.3                   0.664630843350566E+00
        5.4                   0.656883728908479E+00
        5.5                   0.649281813183661E+00
        5.6                   0.641832512333829E+00
        5.7                   0.634543032297607E+00
        5.8                   0.627420035043356E+00
        5.9                   0.620469706621098E+00
        6.0                   0.613697975077927E+00
        6.1                   0.607109733199322E+00
        6.2                   0.600710184495167E+00
        6.3                   0.594503047712905E+00
        6.4                   0.588493103564151E+00
        6.5                   0.582683366383957E+00
        6.6                   0.577075909970358E+00
        6.7                   0.571674098801864E+00
        6.8                   0.566479569329064E+00
        6.9                   0.561493654765916E+00
        7.0                   0.556717637864151E+00
        7.1                   0.552151841277692E+00
        7.2                   0.547796618615275E+00
        7.3                   0.543650910153354E+00
        7.4                   0.539714522185937E+00
        7.5                   0.535986206573966E+00
        7.6                   0.532464123595970E+00
        7.7                   0.529146388709724E+00
        7.8                   0.526030603761690E+00
        7.9                   0.523113768377561E+00
        8.0                   0.520392794087753E+00
        8.1                   0.517864190557491E+00
        8.2                   0.515524299698894E+00
        8.3                   0.513368736272577E+00
        8.4                   0.511393163233751E+00
        8.5                   0.509592855098717E+00
        8.6                   0.507962812179037E+00
        8.7                   0.506497775080660E+00
        8.8                   0.505192441308848E+00
        8.9                   0.504041487051638E+00
        9.0                   0.503037794072794E+00
        9.1                   0.502176365771438E+00
        9.2                   0.501451628584116E+00
        9.3                   0.500856509124969E+00
        9.4                   0.500384358645347E+00
        9.5                   0.500029320248621E+00
        9.6                   0.499784892601840E+00
        9.7                   0.499643942640723E+00
        9.8                   0.499600030015988E+00
        9.9                   0.499647155950116E+00
       10.0                   0.499778231104625E+00
       10.1                   0.499986659398359E+00
       10.2                   0.500266008998878E+00
       10.3                   0.500609683968357E+00
       10.4                   0.501011401105967E+00
       10.5                   0.501464928021036E+00
       10.6                   0.501963770928600E+00
       10.7                   0.502502288123743E+00
       10.8                   0.503074089269734E+00
       10.9                   0.503673712483735E+00
       11.0                   0.504295319853023E+00
       11.1                   0.504933759049829E+00
       11.2                   0.505583552005742E+00
       11.3                   0.506239655203414E+00
       11.4                   0.506897231564931E+00
       11.5                   0.507551796043802E+00
       11.6                   0.508198678361292E+00
       11.7                   0.508833729486846E+00
       11.8                   0.509453277523188E+00
       11.9                   0.510053280303688E+00
       12.0                   0.510630704238487E+00
       12.1                   0.511181897583532E+00
       12.2                   0.511704365113570E+00
       12.3                   0.512195056471342E+00
       12.4                   0.512651709395795E+00
       12.5                   0.513072233410171E+00
       12.6                   0.513454588207928E+00
       12.7                   0.513797206359967E+00
       12.8                   0.514098678239073E+00
       12.9                   0.514357854401722E+00
       13.0                   0.514573993376811E+00
       13.1                   0.514746297357324E+00
       13.2                   0.514874351829362E+00
       13.3                   0.514958092453579E+00
       13.4                   0.514997581053660E+00
       13.5                   0.514993158402986E+00
       13.6                   0.514945202685136E+00
       13.7                   0.514854546828547E+00
       13.8                   0.514722013589459E+00
       13.9                   0.514548913952179E+00
       14.0                   0.514336404588191E+00
       14.1                   0.514085907875607E+00
       14.2                   0.513799188336529E+00
       14.3                   0.513477930301080E+00
       14.4                   0.513124206372103E+00
       14.5                   0.512739892753026E+00
       14.6                   0.512327369516086E+00
       14.7                   0.511888779344900E+00
       14.8                   0.511426704731104E+00
       14.9                   0.510943392799627E+00
       15.0                   0.510441710713801E+00
       15.1                   0.509923971883610E+00
       15.2                   0.509393024255389E+00
       15.3                   0.508851628405269E+00
       15.4                   0.508302411082581E+00
       15.5                   0.507748410813723E+00
       15.6                   0.507192164456936E+00
       15.7                   0.506636601399944E+00
       15.8                   0.506084288770426E+00
       15.9                   0.505538494888763E+00
       16.0                   0.505001637794522E+00
       16.1                   0.504476135594959E+00
       16.2                   0.503965102725444E+00
       16.3                   0.503471264082024E+00
       16.4                   0.502996166921902E+00
       16.5                   0.502543396485578E+00
       16.6                   0.502114890517203E+00
       16.7                   0.501712675056377E+00
       16.8                   0.501339466825302E+00
       16.9                   0.500996973019190E+00
       17.0                   0.500687441690207E+00
       17.1                   0.500412632055894E+00
       17.2                   0.500174100058898E+00
       17.3                   0.499973652415540E+00
       17.4                   0.499812900386833E+00
       17.5                   0.499693295698464E+00
       17.6                   0.499615765273552E+00
       17.7                   0.499581776356074E+00
       17.8                   0.499592187936127E+00
       17.9                   0.499647861054054E+00
       18.0                   0.499749458515038E+00
       18.1                   0.499897859618867E+00
       18.2                   0.500093271724690E+00
       18.3                   0.500336323467823E+00
       18.4                   0.500626351546591E+00
       18.5                   0.500964093110738E+00
       18.6                   0.501349995072761E+00
       18.7                   0.501782720382493E+00
       18.8                   0.502262596757355E+00
       18.9                   0.502789617218286E+00
       19.0                   0.503361960116203E+00
       19.1                   0.503979888829975E+00
       19.2                   0.504642396572248E+00
       19.3                   0.505348627003048E+00
       19.4                   0.506097672102206E+00
       19.5                   0.506887881279739E+00
       19.6                   0.507719243089908E+00
       19.7                   0.508589576228301E+00
       19.8                   0.509497406548587E+00
       19.9                   0.510441755798644E+00
       20.0                   0.511421180264368E+00
       20.1                   0.512433814008130E+00
       20.2                   0.513478068549078E+00
       20.3                   0.514553084891090E+00
       20.4                   0.515656070516277E+00
       20.5                   0.516785507762392E+00
       20.6                   0.517939992060476E+00
       20.7                   0.519117739564061E+00
       20.8                   0.520316300666959E+00
       20.9                   0.521534392004180E+00
       21.0                   0.522769995600083E+00
       21.1                   0.524021444618490E+00
       21.2                   0.525286394467637E+00
       21.3                   0.526563386859195E+00
       21.4                   0.527850378700299E+00
       21.5                   0.529145581439625E+00
       21.6                   0.530446847853392E+00
       21.7                   0.531753616649368E+00
       21.8                   0.533062615635874E+00
       21.9                   0.534372896766427E+00
       22.0                   0.535682461249385E+00
       22.1                   0.536989577591948E+00
       22.2                   0.538293064817280E+00
       22.3                   0.539590950475943E+00
       22.4                   0.540881895196990E+00
       22.5                   0.542164314678459E+00
       22.6                   0.543436548885591E+00
       22.7                   0.544697918144094E+00
       22.8                   0.545946261832851E+00
       22.9                   0.547181140323996E+00
       23.0                   0.548400440096778E+00
       23.1                   0.549603652137877E+00
       23.2                   0.550789644982194E+00
       23.3                   0.551957233049502E+00
       23.4                   0.553104879134740E+00
       23.5                   0.554232979731820E+00
       23.6                   0.555339441440968E+00
       23.7                   0.556423912651517E+00
       23.8                   0.557485752670995E+00
       23.9                   0.558524162254952E+00
       24.0                   0.559538493766471E+00
       24.1                   0.560528306502682E+00
       24.2                   0.561492659790840E+00
       24.3                   0.562431400751623E+00
       24.4                   0.563344426219260E+00
       24.5                   0.564230492457012E+00
       24.6                   0.565089838374404E+00
       24.7                   0.565921825703480E+00
       24.8                   0.566726893197312E+00
       24.9                   0.567503521451349E+00
       25.0                   0.568252844710734E+00
       25.1                   0.568973946252860E+00
       25.2                   0.569666908860311E+00
       25.3                   0.570331702652101E+00
       25.4                   0.570967959994346E+00
       25.5                   0.571575588174329E+00
       25.6                   0.572154695774831E+00
       25.7                   0.572705789288932E+00
       25.8                   0.573227868299964E+00
       25.9                   0.573721764532323E+00
       26.0                   0.574187107961512E+00
       26.1                   0.574623581427766E+00
       26.2                   0.575032062228443E+00
       26.3                   0.575411997809128E+00
       26.4                   0.575763608006437E+00
       26.5                   0.576086725374022E+00
       26.6                   0.576381997648119E+00
       26.7                   0.576648534473494E+00
       26.8                   0.576886766721565E+00
       26.9                   0.577097026084248E+00
       27.0                   0.577279514838658E+00
       27.1                   0.577433219005227E+00
       27.2                   0.577559716613585E+00
       27.3                   0.577657678253870E+00
       27.4                   0.577727896467081E+00
       27.5                   0.577770017198454E+00
       27.6                   0.577783977461971E+00
       27.7                   0.577770120822076E+00
       27.8                   0.577728217359558E+00
       27.9                   0.577658547247106E+00
       28.0                   0.577560496062750E+00
       28.1                   0.577434695876467E+00
       28.2                   0.577280756441228E+00
       28.3                   0.577098832145236E+00
       28.4                   0.576888959801438E+00
       28.5                   0.576650870062232E+00
       28.6                   0.576384806602855E+00
       28.7                   0.576090779414261E+00
       28.8                   0.575768844289445E+00
       28.9                   0.575418475372729E+00
       29.0                   0.575040560008908E+00
       29.1                   0.574634838127588E+00
       29.2                   0.574200863010511E+00
       29.3                   0.573738614841625E+00
       29.4                   0.573248740383721E+00
       29.5                   0.572731591667561E+00
       29.6                   0.572186706673356E+00
       29.7                   0.571614304689961E+00
       29.8                   0.571014836837073E+00
       29.9                   0.570388260205371E+00
       30.0                   0.569734689284528E+00
       30.1                   0.569054729147756E+00
       30.2                   0.568348082718668E+00
       30.3                   0.567615521987153E+00
       30.4                   0.566857254635765E+00
       30.5                   0.566073817657471E+00
       30.6                   0.565265338983523E+00
       30.7                   0.564432058932000E+00
       30.8                   0.563575048055719E+00
       30.9                   0.562694485693887E+00
       31.0                   0.561791030806066E+00
       31.1                   0.560865348566094E+00
       31.2                   0.559917903680145E+00
       31.3                   0.558949065630248E+00
       31.4                   0.557960384657165E+00
       31.5                   0.556951942598934E+00
       31.6                   0.555924662658903E+00
       31.7                   0.554879700918401E+00
       31.8                   0.553817021443883E+00
       31.9                   0.552738179088162E+00
       32.0                   0.551645002685598E+00
       32.1                   0.550537117990656E+00
       32.2                   0.549415918594392E+00
       32.3                   0.548282503491337E+00
       32.4                   0.547137976898939E+00
       32.5                   0.545983874300024E+00
       32.6                   0.544820184455363E+00
       32.7                   0.543648899632253E+00
       32.8                   0.542471288768530E+00
       32.9                   0.541288558833152E+00
       33.0                   0.540101567831047E+00
       33.1                   0.538911802638953E+00
       33.2                   0.537720314876160E+00
       33.3                   0.536529106686463E+00
       33.4                   0.535338467355497E+00
       33.5                   0.534150352248484E+00
       33.6                   0.532965711090032E+00
       33.7                   0.531786085390380E+00
       33.8                   0.530612420842012E+00
       33.9                   0.529446554665850E+00
       34.0                   0.528289494340716E+00
       34.1                   0.527142122278287E+00
       34.2                   0.526006741480796E+00
       34.3                   0.524883335613363E+00
       34.4                   0.523774124722841E+00
       34.5                   0.522679671465731E+00
       34.6                   0.521601629596078E+00
       34.7                   0.520540923090902E+00
       34.8                   0.519498738093513E+00
       34.9                   0.518476250532942E+00
       35.0                   0.517473966163938E+00
       35.1                   0.516493785802202E+00
       35.2                   0.515535835893401E+00
       35.3                   0.514601794759350E+00
       35.4                   0.513692124356307E+00
       35.5                   0.512807864164547E+00
       35.6                   0.511949628120615E+00
       35.7                   0.511118333596525E+00
       35.8                   0.510314418797709E+00
       35.9                   0.509538854997579E+00
       36.0                   0.508791855155045E+00
       36.1                   0.508074406905048E+00
       36.2                   0.507386633123846E+00
       36.3                   0.506728979519437E+00
       36.4                   0.506102060732746E+00
       36.5                   0.505505923920616E+00
       36.6                   0.504940579092775E+00
       36.7                   0.504406581404053E+00
       36.8                   0.503904264968586E+00
       36.9                   0.503433322287045E+00
       37.0                   0.502993712028351E+00
       37.1                   0.502585661789738E+00
       37.2                   0.502208707019854E+00
       37.3                   0.501863037088864E+00
       37.4                   0.501548258976023E+00
       37.5                   0.501263896266186E+00
       37.6                   0.501009838943684E+00
       37.7                   0.500785843678898E+00
       37.8                   0.500591587032833E+00
       37.9                   0.500425824236762E+00
       38.0                   0.500288888896017E+00
       38.1                   0.500179875814453E+00
       38.2                   0.500098160577156E+00
