#
# Time Lag, Days, k     Autocorrelation Coefficient, r(k)
#
        0.0                   0.999999999999996E+00
        1.0                   0.917080678397631E+00
        2.0                   0.870702655670700E+00
        3.0                   0.827625054832416E+00
        4.0                   0.781209894141215E+00
        5.0                   0.738104044261018E+00
        6.0                   0.704963352129435E+00
        7.0                   0.678460517902933E+00
        8.0                   0.675251384304515E+00
        9.0                   0.668710516295994E+00
       10.0                   0.675488385396970E+00
       11.0                   0.682267915340260E+00
       12.0                   0.685717031033764E+00
       13.0                   0.689167341986859E+00
       14.0                   0.689286351442770E+00
       15.0                   0.686074731874564E+00
       16.0                   0.679527996048776E+00
       17.0                   0.669643356803155E+00
       18.0                   0.659755096763488E+00
       19.0                   0.649861602404443E+00
       20.0                   0.639963319554731E+00
       21.0                   0.633398681986354E+00
       22.0                   0.626830608432167E+00
       23.0                   0.623596781627878E+00
       24.0                   0.620362847592519E+00
       25.0                   0.617129591809164E+00
       26.0                   0.613895056798598E+00
       27.0                   0.610660177615773E+00
       28.0                   0.607423943725046E+00
       29.0                   0.607523916595551E+00
       30.0                   0.614305864626721E+00
       31.0                   0.617750232609652E+00
       32.0                   0.621194942971524E+00
       33.0                   0.621301313331673E+00
       34.0                   0.618066772263260E+00
       35.0                   0.614828258420043E+00
       36.0                   0.608244199512269E+00
       37.0                   0.601658780728335E+00
       38.0                   0.595071439929306E+00
       39.0                   0.588476759562981E+00
       40.0                   0.581876611224192E+00
       41.0                   0.578622979733586E+00
       42.0                   0.575370618410046E+00
       43.0                   0.572120337744303E+00
       44.0                   0.572219689632443E+00
       45.0                   0.568968519900326E+00
       46.0                   0.575766665716846E+00
       47.0                   0.579213981090954E+00
       48.0                   0.582661873102944E+00
       49.0                   0.586108923346663E+00
       50.0                   0.582853789859764E+00
       51.0                   0.576248539094349E+00
       52.0                   0.569643442995799E+00
       53.0                   0.556327416647263E+00
       54.0                   0.549716896185400E+00
       55.0                   0.543100994896554E+00
       56.0                   0.539835574379054E+00
       57.0                   0.529862652528155E+00
       58.0                   0.526599361669026E+00
       59.0                   0.523336649486158E+00
       60.0                   0.520069372005710E+00
       61.0                   0.516796814586765E+00
       62.0                   0.516880156037301E+00
       63.0                   0.513604598049876E+00
       64.0                   0.510330425873399E+00
       65.0                   0.507055601563481E+00
       66.0                   0.500418074001264E+00
       67.0                   0.497143769510734E+00
       68.0                   0.493868779219549E+00
       69.0                   0.490589354431875E+00
       70.0                   0.487308827085030E+00
       71.0                   0.484026861323396E+00
       72.0                   0.484107839834566E+00
       73.0                   0.484186925694085E+00
       74.0                   0.480896684769148E+00
       75.0                   0.477606486680839E+00
       76.0                   0.474319024577419E+00
       77.0                   0.471030716393125E+00
       78.0                   0.467742503842927E+00
       79.0                   0.467822731593401E+00
       80.0                   0.461164192915073E+00
       81.0                   0.457874439925617E+00
       82.0                   0.454583459947212E+00
       83.0                   0.451292368163998E+00
       84.0                   0.447998753152326E+00
       85.0                   0.444704281597640E+00
       86.0                   0.444778375733481E+00
       87.0                   0.448223484024505E+00
       88.0                   0.451669759135542E+00
       89.0                   0.451744828468550E+00
       90.0                   0.448445791227633E+00
       91.0                   0.441773533109642E+00
       92.0                   0.435102397188999E+00
       93.0                   0.428427541760059E+00
       94.0                   0.421748475193602E+00
       95.0                   0.415066014608013E+00
       96.0                   0.408380288205373E+00
       97.0                   0.405071748237856E+00
       98.0                   0.401760719575039E+00
       99.0                   0.398448358128291E+00
      100.0                   0.395136205825497E+00
      101.0                   0.391822015112246E+00
      102.0                   0.388508091881276E+00
      103.0                   0.385194495893265E+00
      104.0                   0.381881782591410E+00
      105.0                   0.378567117006121E+00
      106.0                   0.375249760739690E+00
      107.0                   0.375311770675836E+00
      108.0                   0.371988413422464E+00
      109.0                   0.365280441535614E+00
      110.0                   0.361957870669010E+00
      111.0                   0.358634392724924E+00
      112.0                   0.355312956701238E+00
      113.0                   0.355380853351031E+00
      114.0                   0.352058785090237E+00
      115.0                   0.348731682122424E+00
      116.0                   0.345402310191245E+00
      117.0                   0.342069398722275E+00
      118.0                   0.338734169055355E+00
      119.0                   0.338785156363818E+00
      120.0                   0.335444100490371E+00
      121.0                   0.332103618673395E+00
      122.0                   0.328764305311364E+00
      123.0                   0.328819891097463E+00
      124.0                   0.322089130638879E+00
      125.0                   0.318753861983210E+00
      126.0                   0.312021632273574E+00
      127.0                   0.308680527067750E+00
      128.0                   0.305334219276404E+00
      129.0                   0.301982282868007E+00
      130.0                   0.295228881124463E+00
      131.0                   0.295272210725272E+00
      132.0                   0.288517298646025E+00
      133.0                   0.285163005268219E+00
      134.0                   0.281809128652071E+00
      135.0                   0.278458528804140E+00
      136.0                   0.275109267531095E+00
      137.0                   0.275162571779835E+00
      138.0                   0.271814808615285E+00
      139.0                   0.268464644710906E+00
      140.0                   0.265111161662018E+00
      141.0                   0.261754202121253E+00
      142.0                   0.254985828094881E+00
      143.0                   0.251619231525187E+00
      144.0                   0.248251007043603E+00
      145.0                   0.248288223980000E+00
      146.0                   0.248325011903608E+00
      147.0                   0.248362441401224E+00
      148.0                   0.248400687531258E+00
      149.0                   0.248437382798331E+00
      150.0                   0.248475874155182E+00
      151.0                   0.248517937778552E+00
      152.0                   0.245151094001184E+00
      153.0                   0.238369410143969E+00
      154.0                   0.231586765760479E+00
      155.0                   0.224800525901116E+00
      156.0                   0.218008002268992E+00
      157.0                   0.211212551208715E+00
      158.0                   0.204415153385738E+00
      159.0                   0.197616476082928E+00
      160.0                   0.197654540577786E+00
      161.0                   0.197693630802845E+00
      162.0                   0.197733397260633E+00
      163.0                   0.197772165705942E+00
      164.0                   0.197808924451775E+00
      165.0                   0.197845418936994E+00
      166.0                   0.197879553528123E+00
      167.0                   0.194488338369227E+00
      168.0                   0.191096033289112E+00
      169.0                   0.187702773100106E+00
      170.0                   0.184309174207497E+00
      171.0                   0.180918022138435E+00
      172.0                   0.177526604597955E+00
      173.0                   0.174134872537665E+00
      174.0                   0.170744039176623E+00
      175.0                   0.167351789579165E+00
      176.0                   0.163959085929730E+00
      177.0                   0.160565274322476E+00
      178.0                   0.157169692740859E+00
      179.0                   0.153771552112940E+00
      180.0                   0.150370083834987E+00
      181.0                   0.146965313396899E+00
      182.0                   0.143556153364080E+00
      183.0                   0.140142761090485E+00
      184.0                   0.136728701897699E+00
      185.0                   0.133317172377729E+00
      186.0                   0.129906259158103E+00
      187.0                   0.126495229420175E+00
      188.0                   0.126520586212948E+00
      189.0                   0.126545266646744E+00
      190.0                   0.126566799893889E+00
      191.0                   0.126585273797495E+00
      192.0                   0.126601564147574E+00
      193.0                   0.126618968457050E+00
      194.0                   0.123197824585596E+00
      195.0                   0.119774471441135E+00
      196.0                   0.112915273866933E+00
      197.0                   0.106054676138304E+00
      198.0                   0.957539911558151E-01
      199.0                   0.888885133032901E-01
      200.0                   0.820180380422332E-01
      201.0                   0.820305102459688E-01
      202.0                   0.820421368096234E-01
      203.0                   0.854991752284896E-01
      204.0                   0.889597053555313E-01
      205.0                   0.924240338133176E-01
      206.0                   0.958908117164122E-01
      207.0                   0.993582212157743E-01
      208.0                   0.993758290336176E-01
      209.0                   0.959436276942210E-01
      210.0                   0.890611736908338E-01
      211.0                   0.821752501712372E-01
      212.0                   0.752905473428254E-01
      213.0                   0.684054849149833E-01
      214.0                   0.615199053084372E-01
      215.0                   0.546305996954153E-01
      216.0                   0.511881161907574E-01
      217.0                   0.511955185413314E-01
      218.0                   0.546569886592383E-01
      219.0                   0.581206810759888E-01
      220.0                   0.650370789907345E-01
      221.0                   0.719567314044236E-01
      222.0                   0.754280132359090E-01
      223.0                   0.789010520595682E-01
      224.0                   0.823728543996602E-01
      225.0                   0.823879674022275E-01
      226.0                   0.789420079721751E-01
      227.0                   0.754939673181263E-01
      228.0                   0.685897184764022E-01
      229.0                   0.651442536721016E-01
      230.0                   0.617012821053716E-01
      231.0                   0.582612295765399E-01
      232.0                   0.548216676319833E-01
      233.0                   0.513850258331157E-01
      234.0                   0.514046677193676E-01
      235.0                   0.514225782318354E-01
      236.0                   0.514405610824517E-01
      237.0                   0.514600086753507E-01
      238.0                   0.514806997705897E-01
      239.0                   0.549689094915182E-01
      240.0                   0.584571919161555E-01
      241.0                   0.619438912245562E-01
      242.0                   0.654242616501181E-01
      243.0                   0.688996699845535E-01
      244.0                   0.723711466401101E-01
      245.0                   0.723692211425029E-01
      246.0                   0.688949176790937E-01
      247.0                   0.654207185997945E-01
      248.0                   0.619461422466935E-01
      249.0                   0.584748700642110E-01
      250.0                   0.619504574235716E-01
      251.0                   0.654308635815772E-01
      252.0                   0.723880133857363E-01
      253.0                   0.793467713811728E-01
      254.0                   0.897849396528489E-01
      255.0                   0.967537947550320E-01
      256.0                   0.103725661391906E+00
      257.0                   0.103748033440067E+00
      258.0                   0.103771208763343E+00
      259.0                   0.100315151263798E+00
      260.0                   0.933796281165446E-01
      261.0                   0.864410116679752E-01
      262.0                   0.829728192526190E-01
      263.0                   0.795020097110348E-01
      264.0                   0.760351063232745E-01
      265.0                   0.760519262154539E-01
      266.0                   0.795523673522117E-01
      267.0                   0.830556516218931E-01
      268.0                   0.865610276119013E-01
      269.0                   0.900675318616950E-01
      270.0                   0.935736906547907E-01
      271.0                   0.970779245279102E-01
      272.0                   0.100581519356452E+00
      273.0                   0.104084029703392E+00
      274.0                   0.104099647416009E+00
      275.0                   0.104116123196872E+00
      276.0                   0.107617815604736E+00
      277.0                   0.111122979271394E+00
      278.0                   0.111146773105015E+00
      279.0                   0.111171525776086E+00
      280.0                   0.111193097627296E+00
      281.0                   0.111211846291879E+00
      282.0                   0.111229613959704E+00
      283.0                   0.111246495174699E+00
      284.0                   0.111265718307793E+00
      285.0                   0.107796632540457E+00
      286.0                   0.104327680505964E+00
      287.0                   0.104350861786041E+00
      288.0                   0.104375631703872E+00
      289.0                   0.104399996737257E+00
      290.0                   0.104421250963048E+00
      291.0                   0.104439584133623E+00
      292.0                   0.104455438884160E+00
      293.0                   0.104469106358056E+00
      294.0                   0.104482267856613E+00
      295.0                   0.104495205499753E+00
      296.0                   0.104508115603330E+00
      297.0                   0.104520560830705E+00
      298.0                   0.104532045969743E+00
      299.0                   0.104544658334647E+00
      300.0                   0.104560509306946E+00
      301.0                   0.104579663331145E+00
      302.0                   0.104604463011215E+00
      303.0                   0.104637498865255E+00
      304.0                   0.104672981704204E+00
      305.0                   0.104707234794062E+00
      306.0                   0.104736494407113E+00
      307.0                   0.104759685994921E+00
      308.0                   0.108283954513962E+00
      309.0                   0.111807231988555E+00
      310.0                   0.115331102742940E+00
      311.0                   0.115347751727578E+00
      312.0                   0.115362510487429E+00
      313.0                   0.115378269160725E+00
      314.0                   0.115392871745645E+00
      315.0                   0.111892668018919E+00
      316.0                   0.108389712430083E+00
      317.0                   0.104886041151571E+00
      318.0                   0.104896200195720E+00
      319.0                   0.104909753935905E+00
      320.0                   0.104926560351466E+00
      321.0                   0.104944441017330E+00
      322.0                   0.104963418229856E+00
      323.0                   0.104982961586589E+00
      324.0                   0.105001467091513E+00
      325.0                   0.105020577258321E+00
      326.0                   0.108557961754365E+00
      327.0                   0.105057732349527E+00
      328.0                   0.105073632677107E+00
      329.0                   0.108608795900677E+00
      330.0                   0.105106210768452E+00
      331.0                   0.105124468678942E+00
      332.0                   0.105142135140744E+00
      333.0                   0.105161134973734E+00
      334.0                   0.105179756341826E+00
      335.0                   0.105197593705791E+00
      336.0                   0.105217641902287E+00
      337.0                   0.105240063591034E+00
      338.0                   0.105260013163610E+00
      339.0                   0.105278213838831E+00
      340.0                   0.108819911217313E+00
      341.0                   0.112358856579490E+00
      342.0                   0.115895556310843E+00
      343.0                   0.119433272316313E+00
      344.0                   0.122975645071208E+00
      345.0                   0.126522787470197E+00
      346.0                   0.130074303119541E+00
      347.0                   0.126566803290717E+00
      348.0                   0.119528702472211E+00
      349.0                   0.112489863175421E+00
      350.0                   0.105448212614413E+00
      351.0                   0.984006613144642E-01
      352.0                   0.878126532386204E-01
      353.0                   0.842895109674553E-01
      354.0                   0.878353111742360E-01
      355.0                   0.913836875727385E-01
      356.0                   0.949361660739480E-01
      357.0                   0.984923186586979E-01
      358.0                   0.102054127628857E+00
      359.0                   0.105622532328222E+00
      360.0                   0.102110177513894E+00
      361.0                   0.985960489712456E-01
      362.0                   0.950775986408295E-01
      363.0                   0.915530802278274E-01
      364.0                   0.880220783386756E-01
      365.0                   0.844879525151131E-01
      366.0                   0.809533054420787E-01
      367.0                   0.809653647899968E-01
      368.0                   0.809778435900597E-01
      369.0                   0.845382381625903E-01
      370.0                   0.881015614455323E-01
      371.0                   0.916684884119673E-01
      372.0                   0.952372415985024E-01
      373.0                   0.988084810737494E-01
      374.0                   0.102379484709971E+00
      375.0                   0.105949604011377E+00
      376.0                   0.105968292078831E+00
      377.0                   0.105985067560230E+00
      378.0                   0.106000025331378E+00
      379.0                   0.106015235783793E+00
      380.0                   0.106031810008563E+00
      381.0                   0.109601947398324E+00
      382.0                   0.116729271771284E+00
