#
# Time Lag, Days, k     Autocorrelation Coefficient, r(k)
#
        0.0                   0.999999999999997E+00
        0.1                   0.999839876165632E+00
        0.2                   0.999325666645776E+00
        0.3                   0.998458263937887E+00
        0.4                   0.997239165350504E+00
        0.5                   0.995670469545484E+00
        0.6                   0.993754871689449E+00
        0.7                   0.991495657227244E+00
        0.8                   0.988896694294476E+00
        0.9                   0.985962424789270E+00
        1.0                   0.982697854127418E+00
        1.1                   0.979108539708328E+00
        1.2                   0.975200578122862E+00
        1.3                   0.970980591137327E+00
        1.4                   0.966455710491197E+00
        1.5                   0.961633561549379E+00
        1.6                   0.956522245852657E+00
        1.7                   0.951130322613116E+00
        1.8                   0.945466789203761E+00
        1.9                   0.939541060694555E+00
        2.0                   0.933362948489186E+00
        2.1                   0.926942638119455E+00
        2.2                   0.920290666256188E+00
        2.3                   0.913417896997479E+00
        2.4                   0.906335497497025E+00
        2.5                   0.899054895043838E+00
        2.6                   0.891587837058305E+00
        2.7                   0.883946190841366E+00
        2.8                   0.876142140919748E+00
        2.9                   0.868187802485683E+00
        3.0                   0.860096031002603E+00
        3.1                   0.851878721038096E+00
        3.2                   0.843549445776534E+00
        3.3                   0.835120280707185E+00
        3.4                   0.826603948779665E+00
        3.5                   0.818013478737371E+00
        3.6                   0.809361463435394E+00
        3.7                   0.800660618357533E+00
        3.8                   0.791923943653945E+00
        3.9                   0.783163594803428E+00
        4.0                   0.774392085826099E+00
        4.1                   0.765621685025979E+00
        4.2                   0.756864446378741E+00
        4.3                   0.748132510603335E+00
        4.4                   0.739437329010632E+00
        4.5                   0.730790228424796E+00
        4.6                   0.722202856602091E+00
        4.7                   0.713685833389444E+00
        4.8                   0.705249673375604E+00
        4.9                   0.696904711429669E+00
        5.0                   0.688661080991234E+00
        5.1                   0.680528101590468E+00
        5.2                   0.672515298560584E+00
        5.3                   0.664630843350630E+00
        5.4                   0.656883728908540E+00
        5.5                   0.649281813183729E+00
        5.6                   0.641832512333896E+00
        5.7                   0.634543032297675E+00
        5.8                   0.627420035043425E+00
        5.9                   0.620469706621172E+00
        6.0                   0.613697975077999E+00
        6.1                   0.607109733199397E+00
        6.2                   0.600710184495242E+00
        6.3                   0.594503047712979E+00
        6.4                   0.588493103564229E+00
        6.5                   0.582683366384035E+00
        6.6                   0.577075909970434E+00
        6.7                   0.571674098801944E+00
        6.8                   0.566479569329142E+00
        6.9                   0.561493654765995E+00
        7.0                   0.556717637864232E+00
        7.1                   0.552151841277774E+00
        7.2                   0.547796618615357E+00
        7.3                   0.543650910153436E+00
        7.4                   0.539714522186022E+00
        7.5                   0.535986206574051E+00
        7.6                   0.532464123596053E+00
        7.7                   0.529146388709804E+00
        7.8                   0.526030603761776E+00
        7.9                   0.523113768377645E+00
        8.0                   0.520392794087839E+00
        8.1                   0.517864190557576E+00
        8.2                   0.515524299698979E+00
        8.3                   0.513368736272664E+00
        8.4                   0.511393163233837E+00
        8.5                   0.509592855098802E+00
        8.6                   0.507962812179122E+00
        8.7                   0.506497775080746E+00
        8.8                   0.505192441308935E+00
        8.9                   0.504041487051718E+00
        9.0                   0.503037794072884E+00
        9.1                   0.502176365771520E+00
        9.2                   0.501451628584201E+00
        9.3                   0.500856509125053E+00
        9.4                   0.500384358645430E+00
        9.5                   0.500029320248708E+00
        9.6                   0.499784892601921E+00
        9.7                   0.499643942640810E+00
        9.8                   0.499600030016072E+00
        9.9                   0.499647155950199E+00
       10.0                   0.499778231104705E+00
       10.1                   0.499986659398443E+00
       10.2                   0.500266008998956E+00
       10.3                   0.500609683968435E+00
       10.4                   0.501011401106052E+00
       10.5                   0.501464928021117E+00
       10.6                   0.501963770928680E+00
       10.7                   0.502502288123820E+00
       10.8                   0.503074089269809E+00
       10.9                   0.503673712483814E+00
       11.0                   0.504295319853099E+00
       11.1                   0.504933759049909E+00
       11.2                   0.505583552005816E+00
       11.3                   0.506239655203488E+00
       11.4                   0.506897231565008E+00
       11.5                   0.507551796043876E+00
       11.6                   0.508198678361360E+00
       11.7                   0.508833729486919E+00
       11.8                   0.509453277523260E+00
       11.9                   0.510053280303758E+00
       12.0                   0.510630704238559E+00
       12.1                   0.511181897583598E+00
       12.2                   0.511704365113638E+00
       12.3                   0.512195056471413E+00
       12.4                   0.512651709395862E+00
       12.5                   0.513072233410239E+00
       12.6                   0.513454588207997E+00
       12.7                   0.513797206360032E+00
       12.8                   0.514098678239140E+00
       12.9                   0.514357854401787E+00
       13.0                   0.514573993376873E+00
       13.1                   0.514746297357386E+00
       13.2                   0.514874351829427E+00
       13.3                   0.514958092453643E+00
       13.4                   0.514997581053721E+00
       13.5                   0.514993158403050E+00
       13.6                   0.514945202685203E+00
       13.7                   0.514854546828611E+00
       13.8                   0.514722013589523E+00
       13.9                   0.514548913952239E+00
       14.0                   0.514336404588254E+00
       14.1                   0.514085907875667E+00
       14.2                   0.513799188336590E+00
       14.3                   0.513477930301142E+00
       14.4                   0.513124206372163E+00
       14.5                   0.512739892753090E+00
       14.6                   0.512327369516145E+00
       14.7                   0.511888779344962E+00
       14.8                   0.511426704731165E+00
       14.9                   0.510943392799690E+00
       15.0                   0.510441710713864E+00
       15.1                   0.509923971883670E+00
       15.2                   0.509393024255450E+00
       15.3                   0.508851628405328E+00
       15.4                   0.508302411082643E+00
       15.5                   0.507748410813786E+00
       15.6                   0.507192164456997E+00
       15.7                   0.506636601400006E+00
       15.8                   0.506084288770483E+00
       15.9                   0.505538494888829E+00
       16.0                   0.505001637794580E+00
       16.1                   0.504476135595021E+00
       16.2                   0.503965102725505E+00
       16.3                   0.503471264082087E+00
       16.4                   0.502996166921964E+00
       16.5                   0.502543396485639E+00
       16.6                   0.502114890517268E+00
       16.7                   0.501712675056440E+00
       16.8                   0.501339466825364E+00
       16.9                   0.500996973019256E+00
       17.0                   0.500687441690269E+00
       17.1                   0.500412632055960E+00
       17.2                   0.500174100058964E+00
       17.3                   0.499973652415605E+00
       17.4                   0.499812900386897E+00
       17.5                   0.499693295698530E+00
       17.6                   0.499615765273616E+00
       17.7                   0.499581776356142E+00
       17.8                   0.499592187936197E+00
       17.9                   0.499647861054121E+00
       18.0                   0.499749458515106E+00
       18.1                   0.499897859618935E+00
       18.2                   0.500093271724757E+00
       18.3                   0.500336323467892E+00
       18.4                   0.500626351546661E+00
       18.5                   0.500964093110810E+00
       18.6                   0.501349995072834E+00
       18.7                   0.501782720382561E+00
       18.8                   0.502262596757428E+00
       18.9                   0.502789617218358E+00
       19.0                   0.503361960116278E+00
       19.1                   0.503979888830048E+00
       19.2                   0.504642396572323E+00
       19.3                   0.505348627003124E+00
       19.4                   0.506097672102279E+00
       19.5                   0.506887881279812E+00
       19.6                   0.507719243089983E+00
       19.7                   0.508589576228380E+00
       19.8                   0.509497406548663E+00
       19.9                   0.510441755798718E+00
       20.0                   0.511421180264448E+00
       20.1                   0.512433814008211E+00
       20.2                   0.513478068549155E+00
       20.3                   0.514553084891167E+00
       20.4                   0.515656070516360E+00
       20.5                   0.516785507762472E+00
       20.6                   0.517939992060560E+00
       20.7                   0.519117739564144E+00
       20.8                   0.520316300667044E+00
       20.9                   0.521534392004266E+00
       21.0                   0.522769995600168E+00
       21.1                   0.524021444618574E+00
       21.2                   0.525286394467726E+00
       21.3                   0.526563386859281E+00
       21.4                   0.527850378700386E+00
       21.5                   0.529145581439715E+00
       21.6                   0.530446847853483E+00
       21.7                   0.531753616649458E+00
       21.8                   0.533062615635966E+00
       21.9                   0.534372896766519E+00
       22.0                   0.535682461249478E+00
       22.1                   0.536989577592040E+00
       22.2                   0.538293064817374E+00
       22.3                   0.539590950476039E+00
       22.4                   0.540881895197082E+00
       22.5                   0.542164314678550E+00
       22.6                   0.543436548885687E+00
       22.7                   0.544697918144187E+00
       22.8                   0.545946261832946E+00
       22.9                   0.547181140324092E+00
       23.0                   0.548400440096874E+00
       23.1                   0.549603652137974E+00
       23.2                   0.550789644982293E+00
       23.3                   0.551957233049604E+00
       23.4                   0.553104879134839E+00
       23.5                   0.554232979731919E+00
       23.6                   0.555339441441066E+00
       23.7                   0.556423912651616E+00
       23.8                   0.557485752671095E+00
       23.9                   0.558524162255053E+00
       24.0                   0.559538493766572E+00
       24.1                   0.560528306502784E+00
       24.2                   0.561492659790941E+00
       24.3                   0.562431400751727E+00
       24.4                   0.563344426219363E+00
       24.5                   0.564230492457118E+00
       24.6                   0.565089838374507E+00
       24.7                   0.565921825703585E+00
       24.8                   0.566726893197414E+00
       24.9                   0.567503521451455E+00
       25.0                   0.568252844710841E+00
       25.1                   0.568973946252970E+00
       25.2                   0.569666908860420E+00
       25.3                   0.570331702652210E+00
       25.4                   0.570967959994457E+00
       25.5                   0.571575588174440E+00
       25.6                   0.572154695774942E+00
       25.7                   0.572705789289045E+00
       25.8                   0.573227868300077E+00
       25.9                   0.573721764532429E+00
       26.0                   0.574187107961625E+00
       26.1                   0.574623581427876E+00
       26.2                   0.575032062228556E+00
       26.3                   0.575411997809242E+00
       26.4                   0.575763608006550E+00
       26.5                   0.576086725374140E+00
       26.6                   0.576381997648234E+00
       26.7                   0.576648534473609E+00
       26.8                   0.576886766721679E+00
       26.9                   0.577097026084364E+00
       27.0                   0.577279514838774E+00
       27.1                   0.577433219005342E+00
       27.2                   0.577559716613701E+00
       27.3                   0.577657678253988E+00
       27.4                   0.577727896467200E+00
       27.5                   0.577770017198573E+00
       27.6                   0.577783977462091E+00
       27.7                   0.577770120822196E+00
       27.8                   0.577728217359676E+00
       27.9                   0.577658547247230E+00
       28.0                   0.577560496062871E+00
       28.1                   0.577434695876587E+00
       28.2                   0.577280756441348E+00
       28.3                   0.577098832145354E+00
       28.4                   0.576888959801564E+00
       28.5                   0.576650870062355E+00
       28.6                   0.576384806602974E+00
       28.7                   0.576090779414382E+00
       28.8                   0.575768844289564E+00
       28.9                   0.575418475372851E+00
       29.0                   0.575040560009028E+00
       29.1                   0.574634838127712E+00
       29.2                   0.574200863010636E+00
       29.3                   0.573738614841747E+00
       29.4                   0.573248740383845E+00
       29.5                   0.572731591667686E+00
       29.6                   0.572186706673481E+00
       29.7                   0.571614304690083E+00
       29.8                   0.571014836837197E+00
       29.9                   0.570388260205501E+00
       30.0                   0.569734689284657E+00
       30.1                   0.569054729147882E+00
       30.2                   0.568348082718795E+00
       30.3                   0.567615521987279E+00
       30.4                   0.566857254635892E+00
       30.5                   0.566073817657593E+00
       30.6                   0.565265338983650E+00
       30.7                   0.564432058932122E+00
       30.8                   0.563575048055847E+00
       30.9                   0.562694485694016E+00
       31.0                   0.561791030806193E+00
       31.1                   0.560865348566221E+00
       31.2                   0.559917903680274E+00
       31.3                   0.558949065630374E+00
       31.4                   0.557960384657293E+00
       31.5                   0.556951942599060E+00
       31.6                   0.555924662659030E+00
       31.7                   0.554879700918531E+00
       31.8                   0.553817021444010E+00
       31.9                   0.552738179088291E+00
       32.0                   0.551645002685727E+00
       32.1                   0.550537117990787E+00
       32.2                   0.549415918594522E+00
       32.3                   0.548282503491467E+00
       32.4                   0.547137976899067E+00
       32.5                   0.545983874300154E+00
       32.6                   0.544820184455492E+00
       32.7                   0.543648899632382E+00
       32.8                   0.542471288768663E+00
       32.9                   0.541288558833281E+00
       33.0                   0.540101567831174E+00
       33.1                   0.538911802639082E+00
       33.2                   0.537720314876287E+00
       33.3                   0.536529106686588E+00
       33.4                   0.535338467355627E+00
       33.5                   0.534150352248609E+00
       33.6                   0.532965711090158E+00
       33.7                   0.531786085390506E+00
       33.8                   0.530612420842139E+00
       33.9                   0.529446554665980E+00
       34.0                   0.528289494340843E+00
       34.1                   0.527142122278414E+00
       34.2                   0.526006741480926E+00
       34.3                   0.524883335613494E+00
       34.4                   0.523774124722971E+00
       34.5                   0.522679671465857E+00
       34.6                   0.521601629596205E+00
       34.7                   0.520540923091030E+00
       34.8                   0.519498738093645E+00
       34.9                   0.518476250533067E+00
       35.0                   0.517473966164067E+00
       35.1                   0.516493785802329E+00
       35.2                   0.515535835893525E+00
       35.3                   0.514601794759477E+00
       35.4                   0.513692124356435E+00
       35.5                   0.512807864164674E+00
       35.6                   0.511949628120740E+00
       35.7                   0.511118333596654E+00
       35.8                   0.510314418797834E+00
       35.9                   0.509538854997703E+00
       36.0                   0.508791855155172E+00
       36.1                   0.508074406905178E+00
       36.2                   0.507386633123978E+00
       36.3                   0.506728979519566E+00
       36.4                   0.506102060732872E+00
       36.5                   0.505505923920744E+00
       36.6                   0.504940579092903E+00
       36.7                   0.504406581404183E+00
       36.8                   0.503904264968712E+00
       36.9                   0.503433322287174E+00
       37.0                   0.502993712028483E+00
       37.1                   0.502585661789873E+00
       37.2                   0.502208707019983E+00
       37.3                   0.501863037088993E+00
       37.4                   0.501548258976155E+00
       37.5                   0.501263896266315E+00
       37.6                   0.501009838943813E+00
       37.7                   0.500785843679024E+00
       37.8                   0.500591587032964E+00
       37.9                   0.500425824236893E+00
       38.0                   0.500288888896150E+00
       38.1                   0.500179875814586E+00
       38.2                   0.500098160577286E+00
