#
# Time Lag, Days, k     Autocorrelation Coefficient, r(k)
#
        0.0                   0.100000000000000E+01
        0.1                   0.999889838120772E+00
        0.2                   0.999525458228216E+00
        0.3                   0.998907579091804E+00
        0.4                   0.998037405410137E+00
        0.5                   0.996916624881165E+00
        0.6                   0.995547404094923E+00
        0.7                   0.993932383260269E+00
        0.8                   0.992074669780051E+00
        0.9                   0.989977830692383E+00
        1.0                   0.987645883998950E+00
        1.1                   0.985083288903967E+00
        1.2                   0.982294934990886E+00
        1.3                   0.979286130366401E+00
        1.4                   0.976062588804388E+00
        1.5                   0.972630415925125E+00
        1.6                   0.968996094447464E+00
        1.7                   0.965166468554627E+00
        1.8                   0.961148727416180E+00
        1.9                   0.956950387911322E+00
        2.0                   0.952579276600611E+00
        2.1                   0.948043510995215E+00
        2.2                   0.943351480174786E+00
        2.3                   0.938511824806454E+00
        2.4                   0.933533416619203E+00
        2.5                   0.928425298193210E+00
        2.6                   0.923196855876618E+00
        2.7                   0.917857426524831E+00
        2.8                   0.912416564314752E+00
        2.9                   0.906884091776322E+00
        3.0                   0.901269722768615E+00
        3.1                   0.895583281328288E+00
        3.2                   0.889834924563828E+00
        3.3                   0.884034389989828E+00
        3.4                   0.878191766834086E+00
        3.5                   0.872316973148597E+00
        3.6                   0.866419931691842E+00
        3.7                   0.860510474023599E+00
        3.8                   0.854598501478411E+00
        3.9                   0.848693654825034E+00
        4.0                   0.842805436071370E+00
        4.1                   0.836943269591409E+00
        4.2                   0.831116397945135E+00
        4.3                   0.825333913299975E+00
        4.4                   0.819604687227092E+00
        4.5                   0.813937339465646E+00
        4.6                   0.808340247691207E+00
        4.7                   0.802821757063018E+00
        4.8                   0.797389202719870E+00
        4.9                   0.792050618720040E+00
        5.0                   0.786813205108507E+00
        5.1                   0.781683862495638E+00
        5.2                   0.776669207748159E+00
        5.3                   0.771775539080156E+00
        5.4                   0.767008801418996E+00
        5.5                   0.762374535668393E+00
        5.6                   0.757877957455815E+00
        5.7                   0.753523860676003E+00
        5.8                   0.749316689499101E+00
        5.9                   0.745260444995050E+00
        6.0                   0.741358864812736E+00
        6.1                   0.737614969676504E+00
        6.2                   0.734031789379892E+00
        6.3                   0.730611637971891E+00
        6.4                   0.727356675745309E+00
        6.5                   0.724268404079791E+00
        6.6                   0.721348079509495E+00
        6.7                   0.718596429648390E+00
        6.8                   0.716013973361624E+00
        6.9                   0.713600684785881E+00
        7.0                   0.711356201225283E+00
        7.1                   0.709279805832039E+00
        7.2                   0.707370348959217E+00
        7.3                   0.705626355847815E+00
        7.4                   0.704045918043608E+00
        7.5                   0.702626997759068E+00
        7.6                   0.701366895624489E+00
        7.7                   0.700262881998967E+00
        7.8                   0.699311865731479E+00
        7.9                   0.698510246258729E+00
        8.0                   0.697854347191646E+00
        8.1                   0.697340151677959E+00
        8.2                   0.696963423220758E+00
        8.3                   0.696719638095591E+00
        8.4                   0.696604063757496E+00
        8.5                   0.696611772906366E+00
        8.6                   0.696737618434286E+00
        8.7                   0.696976287956885E+00
        8.8                   0.697322298461347E+00
        8.9                   0.697770152772500E+00
        9.0                   0.698313929480411E+00
        9.1                   0.698947955941022E+00
        9.2                   0.699666195597974E+00
        9.3                   0.700462771424932E+00
        9.4                   0.701331357820365E+00
        9.5                   0.702266070074101E+00
        9.6                   0.703260641888364E+00
        9.7                   0.704309312509465E+00
        9.8                   0.705405284653230E+00
        9.9                   0.706543122331426E+00
       10.0                   0.707716462800093E+00
       10.1                   0.708919342736865E+00
       10.2                   0.710145872227124E+00
       10.3                   0.711390205595495E+00
       10.4                   0.712646598072141E+00
       10.5                   0.713909513216774E+00
       10.6                   0.715173357243858E+00
       10.7                   0.716433175303410E+00
       10.8                   0.717682923284602E+00
       10.9                   0.718918348752957E+00
       11.0                   0.720134365787799E+00
       11.1                   0.721326324061305E+00
       11.2                   0.722489752430454E+00
       11.3                   0.723620286820366E+00
       11.4                   0.724714072619102E+00
       11.5                   0.725767138734692E+00
       11.6                   0.726775803873214E+00
       11.7                   0.727736713726788E+00
       11.8                   0.728646844422730E+00
       11.9                   0.729503071950825E+00
       12.0                   0.730302930199948E+00
       12.1                   0.731043508951924E+00
       12.2                   0.731723500951129E+00
       12.3                   0.732340137286594E+00
       12.4                   0.732891981775959E+00
       12.5                   0.733377589739183E+00
       12.6                   0.733795698367060E+00
       12.7                   0.734145339450029E+00
       12.8                   0.734425724634983E+00
       12.9                   0.734636370552403E+00
       13.0                   0.734776980223160E+00
       13.1                   0.734847633099168E+00
       13.2                   0.734848238835116E+00
       13.3                   0.734779220464245E+00
       13.4                   0.734641167847985E+00
       13.5                   0.734435000550941E+00
       13.6                   0.734161498827941E+00
       13.7                   0.733821933235465E+00
       13.8                   0.733417476733942E+00
       13.9                   0.732949797592740E+00
       14.0                   0.732420421656544E+00
       14.1                   0.731831087717073E+00
       14.2                   0.731183861496595E+00
       14.3                   0.730480706497122E+00
       14.4                   0.729723868108254E+00
       14.5                   0.728915470226225E+00
       14.6                   0.728058245634575E+00
       14.7                   0.727154204591015E+00
       14.8                   0.726206299666228E+00
       14.9                   0.725216845667957E+00
       15.0                   0.724188748545887E+00
       15.1                   0.723124412782279E+00
       15.2                   0.722026894418982E+00
       15.3                   0.720898731544331E+00
       15.4                   0.719742816690005E+00
       15.5                   0.718561961764389E+00
       15.6                   0.717358823314410E+00
       15.7                   0.716136280295648E+00
       15.8                   0.714896897097914E+00
       15.9                   0.713643673377914E+00
       16.0                   0.712378981967221E+00
       16.1                   0.711105608858384E+00
       16.2                   0.709826028852407E+00
       16.3                   0.708542739830236E+00
       16.4                   0.707258057060006E+00
       16.5                   0.705974496389026E+00
       16.6                   0.704694137355387E+00
       16.7                   0.703419145680505E+00
       16.8                   0.702151921071166E+00
       16.9                   0.700893883482974E+00
       17.0                   0.699647376677677E+00
       17.1                   0.698413730667133E+00
       17.2                   0.697194769670161E+00
       17.3                   0.695991852047560E+00
       17.4                   0.694806446933058E+00
       17.5                   0.693639969844408E+00
       17.6                   0.692493368025514E+00
       17.7                   0.691367777901231E+00
       17.8                   0.690264116966192E+00
       17.9                   0.689183048308110E+00
       18.0                   0.688125236170849E+00
       18.1                   0.687091428773659E+00
       18.2                   0.686081782404568E+00
       18.3                   0.685096766946063E+00
       18.4                   0.684136377708444E+00
       18.5                   0.683200877115633E+00
       18.6                   0.682290172426446E+00
       18.7                   0.681404070133770E+00
       18.8                   0.680541967131644E+00
       18.9                   0.679704571989061E+00
       19.0                   0.678890393395331E+00
       19.1                   0.678099322771886E+00
       19.2                   0.677330720146872E+00
       19.3                   0.676583965612757E+00
       19.4                   0.675858130551051E+00
       19.5                   0.675152449125582E+00
       19.6                   0.674466146697001E+00
       19.7                   0.673798204518259E+00
       19.8                   0.673147626922582E+00
       19.9                   0.672513370681784E+00
       20.0                   0.671894481638253E+00
       20.1                   0.671289714369287E+00
       20.2                   0.670697879066677E+00
       20.3                   0.670118279688790E+00
       20.4                   0.669549197507929E+00
       20.5                   0.668990040872939E+00
       20.6                   0.668438971796682E+00
       20.7                   0.667895513883650E+00
       20.8                   0.667358102945934E+00
       20.9                   0.666825820648700E+00
       21.0                   0.666297572230337E+00
       21.1                   0.665772253943820E+00
       21.2                   0.665248918940309E+00
       21.3                   0.664726599892146E+00
       21.4                   0.664204052223312E+00
       21.5                   0.663680831942751E+00
       21.6                   0.663155671837730E+00
       21.7                   0.662628612831759E+00
       21.8                   0.662097795290400E+00
       21.9                   0.661563318345150E+00
       22.0                   0.661024446316379E+00
       22.1                   0.660480594043255E+00
       22.2                   0.659931320806412E+00
       22.3                   0.659376233292391E+00
       22.4                   0.658815150772715E+00
       22.5                   0.658247726212546E+00
       22.6                   0.657673699295182E+00
       22.7                   0.657093409225459E+00
       22.8                   0.656506628822767E+00
       22.9                   0.655913616887846E+00
       23.0                   0.655313877977771E+00
       23.1                   0.654708268043434E+00
       23.2                   0.654097111601154E+00
       23.3                   0.653480850762757E+00
       23.4                   0.652859150087160E+00
       23.5                   0.652233483139851E+00
       23.6                   0.651604226130615E+00
       23.7                   0.650971414184148E+00
       23.8                   0.650336307899619E+00
       23.9                   0.649699769872025E+00
       24.0                   0.649062426752925E+00
       24.1                   0.648425134214130E+00
       24.2                   0.647788766572895E+00
       24.3                   0.647154625978139E+00
       24.4                   0.646523241017127E+00
       24.5                   0.645895965692266E+00
       24.6                   0.645273698748822E+00
       24.7                   0.644657600618909E+00
       24.8                   0.644048970587644E+00
       24.9                   0.643448348146834E+00
       25.0                   0.642857611434156E+00
       25.1                   0.642277436231758E+00
       25.2                   0.641709091786195E+00
       25.3                   0.641153674642135E+00
       25.4                   0.640612407829030E+00
       25.5                   0.640086247649458E+00
       25.6                   0.639576209247753E+00
       25.7                   0.639083928172552E+00
       25.8                   0.638609892533372E+00
       25.9                   0.638155144371438E+00
       26.0                   0.637720852573685E+00
       26.1                   0.637307816413680E+00
       26.2                   0.636917084671802E+00
       26.3                   0.636549452400738E+00
       26.4                   0.636205297317092E+00
       26.5                   0.635885900925965E+00
       26.6                   0.635591862105017E+00
       26.7                   0.635323343579758E+00
       26.8                   0.635081246362575E+00
       26.9                   0.634866047567871E+00
       27.0                   0.634678002501347E+00
       27.1                   0.634517491299889E+00
       27.2                   0.634384902452684E+00
       27.3                   0.634280206525805E+00
       27.4                   0.634203566133111E+00
       27.5                   0.634155174573209E+00
       27.6                   0.634134594827949E+00
       27.7                   0.634142010111594E+00
       27.8                   0.634177099090474E+00
       27.9                   0.634239530033611E+00
       28.0                   0.634328884521167E+00
       28.1                   0.634445044192661E+00
       28.2                   0.634587057890949E+00
       28.3                   0.634754488935317E+00
       28.4                   0.634946733552790E+00
       28.5                   0.635162996444091E+00
       28.6                   0.635402214592325E+00
       28.7                   0.635663932078742E+00
       28.8                   0.635946884506599E+00
       28.9                   0.636250017899529E+00
       29.0                   0.636572691203352E+00
       29.1                   0.636913183828477E+00
       29.2                   0.637270552916398E+00
       29.3                   0.637643450808302E+00
       29.4                   0.638030756582945E+00
       29.5                   0.638431020479573E+00
       29.6                   0.638843043347183E+00
       29.7                   0.639265112052024E+00
       29.8                   0.639696151641654E+00
       29.9                   0.640134308177097E+00
       30.0                   0.640578384476393E+00
       30.1                   0.641026910170746E+00
       30.2                   0.641477722927089E+00
       30.3                   0.641930124796291E+00
       30.4                   0.642382159756426E+00
       30.5                   0.642832368963444E+00
       30.6                   0.643279214459585E+00
       30.7                   0.643720903755993E+00
       30.8                   0.644156358506621E+00
       30.9                   0.644583690859567E+00
       31.0                   0.645001720199144E+00
       31.1                   0.645408920392488E+00
       31.2                   0.645803858227906E+00
       31.3                   0.646184734752088E+00
       31.4                   0.646550832801400E+00
       31.5                   0.646900361494696E+00
       31.6                   0.647232246628069E+00
       31.7                   0.647545148155880E+00
       31.8                   0.647837894530565E+00
       31.9                   0.648108992275984E+00
       32.0                   0.648358604202200E+00
       32.1                   0.648584566546516E+00
       32.2                   0.648785846375545E+00
       32.3                   0.648962027077940E+00
       32.4                   0.649112033469797E+00
       32.5                   0.649235394758032E+00
       32.6                   0.649331038219614E+00
       32.7                   0.649398444078335E+00
       32.8                   0.649437054626767E+00
       32.9                   0.649446446944772E+00
       33.0                   0.649426109143520E+00
       33.1                   0.649375722607251E+00
       33.2                   0.649294584657285E+00
       33.3                   0.649183463861475E+00
       33.4                   0.649041316485238E+00
       33.5                   0.648868409152087E+00
       33.6                   0.648664656647281E+00
       33.7                   0.648430146985416E+00
       33.8                   0.648165103400984E+00
       33.9                   0.647869384064831E+00
       34.0                   0.647543860216781E+00
       34.1                   0.647188009968691E+00
       34.2                   0.646803180220663E+00
       34.3                   0.646389020879645E+00
       34.4                   0.645946842560169E+00
       34.5                   0.645476236613340E+00
       34.6                   0.644978538922370E+00
       34.7                   0.644453999222330E+00
       34.8                   0.643903907737769E+00
       34.9                   0.643328694763005E+00
       35.0                   0.642728735835122E+00
       35.1                   0.642105677317725E+00
       35.2                   0.641459453436639E+00
       35.3                   0.640792028857294E+00
       35.4                   0.640104131198544E+00
       35.5                   0.639395831507757E+00
       35.6                   0.638669109773871E+00
       35.7                   0.637924829166588E+00
       35.8                   0.637163028849510E+00
       35.9                   0.636386982664354E+00
       36.0                   0.635596002866572E+00
       36.1                   0.634791870465397E+00
       36.2                   0.633974839452070E+00
       36.3                   0.633146574467107E+00
       36.4                   0.632308950802538E+00
       36.5                   0.631462317874222E+00
       36.6                   0.630607489484058E+00
       36.7                   0.629745998672856E+00
       36.8                   0.628879267324377E+00
       36.9                   0.628007938459317E+00
       37.0                   0.627133138705199E+00
       37.1                   0.626256137326767E+00
       37.2                   0.625377635234393E+00
       37.3                   0.624499069651439E+00
       37.4                   0.623620730535729E+00
       37.5                   0.622744507811048E+00
       37.6                   0.621870882125601E+00
       37.7                   0.621001111173902E+00
       37.8                   0.620135866218157E+00
       37.9                   0.619275881201484E+00
       38.0                   0.618422441571172E+00
       38.1                   0.617576053928198E+00
       38.2                   0.616737641329726E+00
